 #Independent Particle F
 #Numkpts,nspin=         216           1
 #spin=           1
 #Number of BSE conduction states=           5
 #Number of BSE valence          states=          10
 #Total number of val/cond states=          11          19
 #Gaussian broadening= F
 #If not Gaussian broadening then Lorentzian
 #Broadenings=  1.000000000000000E-003  1.000000000000000E-003
 #LDA energies used as N.L. potential correction in BSE program and NOT lmf F
 #direction of q-vector=
 #  0.000000000000000E+000  0.000000000000000E+000   1.00000000000000     
 #Energy(eV),Real(eps),Imag(eps)
  0.000000000000000E+000   5.83139115009618       2.309872513151956E-002
  1.360580000000000E-002   5.83153997392811       2.310204252778210E-002
  2.721160000000000E-002   5.83198655202266       2.311199925946527E-002
  4.081740000000000E-002   5.83273120440391       2.312860905007739E-002
  5.442320000000000E-002   5.83377446538864       2.315189530684355E-002
  6.802900000000001E-002   5.83511708770522       2.318189162722457E-002
  8.163480000000001E-002   5.83676004065477       2.321862912506415E-002
  9.524060000000001E-002   5.83870449862974       2.326216336077429E-002
  0.108846400000000        5.84095187550741       2.331255570572860E-002
  0.122452200000000        5.84350380226523       2.336987598845724E-002
  0.136058000000000        5.84636214156855       2.343420371109869E-002
  0.149663800000000        5.84952898729250       2.350562788176233E-002
  0.163269600000000        5.85300667058144       2.358424842061986E-002
  0.176875400000000        5.85679776537457       2.367017619961832E-002
  0.190481200000000        5.86090509430462       2.376353333714030E-002
  0.204087000000000        5.86533173522582       2.386445359379206E-002
  0.217692800000000        5.87008102840111       2.397308282778439E-002
  0.231298600000000        5.87515658438801       2.408957950250787E-002
  0.244904400000000        5.88056229265584       2.421411524668391E-002
  0.258510200000000        5.88630233097724       2.434687546977702E-002
  0.272116000000000        5.89238117564032       2.448806003638197E-002
  0.285721800000000        5.89880361253334       2.463788400398331E-002
  0.299327600000000        5.90557474915844       2.479657842904985E-002
  0.312933400000000        5.91270002763613       2.496439124705450E-002
  0.326539200000000        5.92018523877245       2.514158823264363E-002
  0.340145000000000        5.92803653726146       2.532845404688407E-002
  0.353750800000000        5.93626045811014       2.552529337931290E-002
  0.367356600000000        5.94486393437510       2.573243219337631E-002
  0.380962400000000        5.95385431631560       2.595021908483595E-002
  0.394568200000000        5.96323939207257       2.617902676380488E-002
  0.408174000000000        5.97302740999939       2.641925367232166E-002
  0.421779800000000        5.98322710277946       2.667132575075161E-002
  0.435385600000000        5.99384771348182       2.693569836787095E-002
  0.448991400000000        6.00489902372234       2.721285843125440E-002
  0.462597200000000        6.01639138411255       2.750332669660703E-002
  0.476203000000000        6.02833574720477       2.780766029692078E-002
  0.489808800000000        6.04074370315469       2.812645551494609E-002
  0.503414600000000        6.05362751835709       2.846035082538256E-002
  0.517020400000000        6.06700017733349       2.881003023654628E-002
  0.530626200000000        6.08087542818083       2.917622696509257E-002
  0.544232000000000        6.09526783193212       2.955972748174921E-002
  0.557837800000000        6.11019281621248       2.996137597102202E-002
  0.571443600000000        6.12566673362521       3.038207925359492E-002
  0.585049400000000        6.14170692535463       3.082281222680258E-002
  0.598655200000000        6.15833179052464       3.128462388617615E-002
  0.612261000000000        6.17556086192869       3.176864399992466E-002
  0.625866800000000        6.19341488881409       3.227609051847746E-002
  0.639472600000000        6.21191592749886       3.280827781310613E-002
  0.653078400000000        6.23108744069302       3.336662585152473E-002
  0.666684200000000        6.25095440651547       3.395267043452910E-002
  0.680290000000000        6.27154343832750       3.456807463668497E-002
  0.693895800000000        6.29288291666094       3.521464161626906E-002
  0.707501600000000        6.31500313468649       3.589432898577621E-002
  0.721107400000000        6.33793645888559       3.660926496510818E-002
  0.734713200000000        6.36171750681286       3.736176657599512E-002
  0.748319000000000        6.38638334412492       3.815436017936042E-002
  0.761924800000000        6.41197370336828       3.898980470879310E-002
  0.775530600000000        6.43853122740010       3.987111801459832E-002
  0.789136400000000        6.46610174076320       4.080160680637705E-002
  0.802742200000000        6.49473455285827       4.178490077034552E-002
  0.816348000000000        6.52448279738070       4.282499154399361E-002
  0.829953800000000        6.55540381322586       4.392627735950490E-002
  0.843559600000000        6.58755957293864       4.509361432375108E-002
  0.857165400000000        6.62101716583970       4.633237549344572E-002
  0.870771200000000        6.65584934420471       4.764851913765261E-002
  0.884377000000000        6.69213514239664       4.904866786709200E-002
  0.897982800000000        6.72996058066134       5.054020066457537E-002
  0.911588600000000        6.76941946752739       5.213136029125281E-002
  0.925194400000000        6.81061431743480       5.383137909256803E-002
  0.938800200000000        6.85365740352920       5.565062691615189E-002
  0.952406000000000        6.89867196961351       5.760078572131030E-002
  0.966011800000000        6.94579363027374       5.969505655880054E-002
  0.979617600000000        6.99517199442294       6.194840600047934E-002
  0.993223400000000        7.04697255530282       6.437786089474126E-002
   1.00682920000000        7.10137889976733       6.700286264224194E-002
   1.02043500000000        7.15859530202861       6.984569519916604E-002
   1.03404080000000        7.21884978278797       7.293200495842751E-002
   1.04764660000000        7.28239773480269       7.629143585876381E-002
   1.06125240000000        7.34952624191733       7.995840998340061E-002
   1.07485820000000        7.42055925231781       8.397309317503872E-002
   1.08846400000000        7.49586381095945       8.838259772586288E-002
   1.10206980000000        7.57585761445186       9.324249131390253E-002
   1.11567560000000        7.66101822942889       9.861870496276891E-002
   1.12928140000000        7.75189441998248       0.104589965718405     
   1.14288720000000        7.84912017183252       0.111250926170130     
   1.15649300000000        7.95343219606323       0.118716229261423     
   1.17009880000000        8.06569196648380       0.127125842822990     
   1.18370460000000        8.18691372634191       0.136652139197110     
   1.19731040000000        8.31830044444182       0.147509405488400     
   1.21091620000000        8.46129048845377       0.159966788688656     
   1.22452200000000        8.61761894118321       0.174366172156555     
   1.23812780000000        8.78939921725202       0.191147255479450     
   1.25173360000000        8.97923327592174       0.210883358696652     
   1.26533940000000        9.19036282805531       0.234333532248259     
   1.27894520000000        9.42688045808114       0.262520044906511     
   1.29255100000000        9.69403021216123       0.296846414864583     
   1.30615680000000        9.99864500565607       0.339282143716423     
   1.31976260000000        10.3497989227908       0.392660913527415     
   1.33336840000000        10.7598072421052       0.461179251320774     
   1.34697420000000        11.2458089214782       0.551264882631111     
   1.36058000000000        11.8323623770223       0.673165731990388     
   1.37418580000000        12.5558780252075       0.844023551455932     
   1.38779160000000        13.4725493018255        1.09424493963651     
   1.40139740000000        14.6733036284384        1.48186050064876     
   1.41500320000000        16.3133543426628        2.12863313218998     
   1.42860900000000        18.6717624805816        3.32360620071271     
   1.44221480000000        22.2516841509629        5.87654536380812     
   1.45582060000000        27.5772341543813        12.5728882275669     
   1.46942640000000        28.2952331074722        32.7582818931413     
   1.48303220000000       -7.29876701073771        41.4925673681103     
   1.49663800000000       -14.9653858793625        16.6027769887108     
   1.51024380000000       -9.37891085567966        7.25897885583653     
   1.52384960000000       -5.24765260454312        3.94472257675808     
   1.53745540000000       -2.51814331464447        2.48978479210850     
   1.55106120000000      -0.607995904590501        1.74517276659703     
   1.56466700000000       0.821509900817566        1.32550238701332     
   1.57827280000000        1.95987397162990        1.07701944317657     
   1.59187860000000        2.92072547159807       0.930927794395612     
   1.60548440000000        3.77953999920503       0.855327030989376     
   1.61909020000000        4.59393879403121       0.837927725108006     
   1.63269600000000        5.41692337045389       0.881055490149409     
   1.64630180000000        6.30914294465239        1.00493179023671     
   1.65990760000000        7.35589119195245        1.26403591103577     
   1.67351340000000        8.69677137991961        1.80063790306335     
   1.68711920000000        10.5651525827252        3.03988842742589     
   1.70072500000000        13.0365789642220        6.51784826105099     
   1.71433080000000        10.9583640598052        16.0878031951808     
   1.72793660000000       -2.90946592784850        13.6773278428494     
   1.74154240000000       -2.58396353026728        5.56577855072404     
   1.75514820000000       3.082183583890119E-003   3.01325589081478     
   1.76875400000000        2.06643191276065        2.44293524287240     
   1.78235980000000        3.52686393429083        3.32614103421080     
   1.79596560000000        2.24343212612773        4.37524269622875     
   1.80957140000000        2.27550564103067        2.71870030873538     
   1.82317720000000        3.59986955487608        2.84070885718827     
   1.83678300000000        2.93012054997735        4.23344386987718     
   1.85038880000000        2.19643533736663        2.80475509945938     
   1.86399460000000        3.26562993510982        2.65994584049210     
   1.87760040000000        2.53771186483203        3.93775908630206     
   1.89120620000000        1.34746540873433        2.25383597832319     
   1.90481200000000        2.13682780212249        1.16147761358714     
   1.91841780000000        2.91647853275316       0.815168537629155     
   1.93202360000000        3.58142636100397       0.757997898637875     
   1.94562940000000        4.14080680111156        1.00900619393736     
   1.95923520000000        3.98618940428330        1.42374225061324     
   1.97284100000000        3.98244626434121       0.897673836549664     
   1.98644680000000        4.51273661355219       0.668409875957887     
   2.00005260000000        5.07853478111920       0.708229702318638     
   2.01365840000000        5.60117232372007        1.05120859839990     
   2.02726420000000        5.58886670952628        1.42220769020355     
   2.04087000000000        6.00529674005711        1.43739204654067     
   2.05447580000000        6.11946802495977        2.06705079083348     
   2.06808160000000        6.35567262745464        1.89039156929644     
   2.08168740000000        7.52411515663304        2.75860132198679     
   2.09529320000000        7.20802750389025        6.12609323537460     
   2.10889900000000        2.14604048244462        5.62852322447196     
   2.12250480000000        2.19394387427150        2.56529602192137     
   2.13611060000000        3.04646708444817        1.45233549284946     
   2.14971640000000        3.90485774021340       0.985554927772137     
   2.16332220000000        4.61036484155163       0.971351204311343     
   2.17692800000000        4.84092005821889        1.13733440183936     
   2.19053380000000        5.18316566338390       0.909450791526018     
   2.20413960000000        5.67992033884639        1.09255680779436     
   2.21774540000000        5.65843803355489        1.17871312681239     
   2.23135120000000        6.08352683179023        1.01924628665980     
   2.24495700000000        6.39315166351122        1.11532056768934     
   2.25856280000000        6.86401435522888        1.07038575008162     
   2.27216860000000        7.56349734462852        1.18210860202307     
   2.28577440000000        8.40093489901161        1.82167143914460     
   2.29938020000000        8.57173473784986        2.73533255484746     
   2.31298600000000        8.79270025917736        3.26543921541504     
   2.32659180000000        9.34922197377696        4.12738950407503     
   2.34019760000000        10.3151948079971        5.67277308336436     
   2.35380340000000        9.10391054662453        11.2191396387981     
   2.36740920000000        1.02774505118326        9.25674253680629     
   2.38101500000000        1.60022287409849        4.57698104272775     
   2.39462080000000        3.23104457860356        3.58736356204059     
   2.40822660000000        3.89063044153543        3.28049070419883     
   2.42183240000000        4.87088704489746        2.93598988996647     
   2.43543820000000        6.15238090701284        3.94360127800075     
   2.44904400000000        5.36879209137182        6.11527381981749     
   2.46264980000000        2.47035070353277        6.60600105572055     
   2.47625560000000        1.26457875407336        3.58402121148215     
   2.48986140000000        2.35241492234979        2.00945124106983     
   2.50346720000000        3.49956352539390        1.46337877013170     
   2.51707300000000        4.49116759697138        1.32698089821530     
   2.53067880000000        5.56209034173541        1.59686265559518     
   2.54428460000000        6.36477457121992        2.83618366302756     
   2.55789040000000        5.11251504578716        3.84365224381009     
   2.57149620000000        4.68913390434857        2.99866813379867     
   2.58510200000000        5.41480448615498        2.46265067360826     
   2.59870780000000        6.71545906909966        3.17847160420160     
   2.61231360000000        6.45163798538090        5.85904804966242     
   2.62591940000000        2.73696752443858        6.34931504281105     
   2.63952520000000        1.66201349257419        3.13570644598450     
   2.65313100000000        2.87566045362478        1.68290560377843     
   2.66673680000000        3.91012693619917        1.36999557105673     
   2.68034260000000        4.37328988228360        1.43990638389244     
   2.69394840000000        4.78402133200903        1.12722572389490     
   2.70755420000000        5.50758956793108        1.07840550090268     
   2.72116000000000        6.00072052525012        1.51259870757380     
   2.73476580000000        5.96250678836296        1.60660214709732     
   2.74837160000000        6.20682291959041        1.44999133850733     
   2.76197740000000        6.78699041756869        1.27594309481592     
   2.77558320000000        7.66748437588709        1.46623297521448     
   2.78918900000000        8.65546159748277        2.44832004772313     
   2.80279480000000        7.81533198753335        4.74141540030225     
   2.81640060000000        5.74526752233947        3.24204136687130     
   2.83000640000000        6.69828555417376        2.01845480372627     
   2.84361220000000        7.78621143951911        1.93423567534384     
   2.85721800000000        8.71393528430148        2.12064592444847     
   2.87082380000000        10.0925219232713        2.92709877926222     
   2.88442960000000        11.0635515381766        5.64498600188745     
   2.89803540000000        6.61957185535613        8.25177312394483     
   2.91164120000000        5.06399565998830        4.19327067050059     
   2.92524700000000        6.69471355482248        2.60041989221618     
   2.93885280000000        8.25375796035673        2.39298690005470     
   2.95245860000000        9.15556005380573        2.91967527177508     
   2.96606440000000        9.83310418058663        2.80162743620702     
   2.97967020000000        11.0773782572614        3.34096327067414     
   2.99327600000000        11.4461848424760        3.56422534893683     
   3.00688180000000        13.1612074824080        3.62229877530123     
   3.02048760000000        14.7926506772358        4.79813374658585     
   3.03409340000000        15.9815940116044        5.50739605223860     
   3.04769920000000        19.3062121865505        6.10350921435453     
   3.06130500000000        24.5240386200794        9.62526988040478     
   3.07491080000000        28.3610648598677        19.6163295536195     
   3.08851660000000        24.8869603747564        26.8086528887146     
   3.10212240000000        29.5234249819458        43.5086900585141     
   3.11572820000000       -10.1410937395330        68.9899097563068     
   3.12933400000000       -33.9486425525398        31.8977793292423     
   3.14293980000000       -25.4157229502975        14.2280810511317     
   3.15654560000000       -18.4848410979275        8.38055059329360     
   3.17015140000000       -13.8746367449700        6.25195261872677     
   3.18375720000000       -11.5581383454638        5.81749952546791     
   3.19736300000000       -10.9499121615640        4.56755335607193     
   3.21096880000000       -9.35009518295730        2.72951400307706     
   3.22457460000000       -7.63046264835497        1.85986357749455     
   3.23818040000000       -6.23329996176011        1.39322773883253     
   3.25178620000000       -5.10701379572184        1.10049654984884     
   3.26539200000000       -4.15300790189533       0.911847362947537     
   3.27899780000000       -3.34873813845996       0.790678706942865     
   3.29260360000000       -2.65088967870871       0.691993400188198     
   3.30620940000000       -2.02108153383275       0.621425388225561     
   3.31981520000000       -1.45136633307562       0.575759358796896     
   3.33342100000000      -0.927574937735289       0.538296957418243     
   3.34702680000000      -0.423519732691942       0.517732062285767     
   3.36063260000000       6.766351921857405E-002  0.524494571060611     
   3.37423840000000       0.558063657016505       0.582981894034502     
   3.38784420000000       0.978449171768115       0.791246825439937     
   3.40145000000000        1.08354464210735       0.877956895292998     
   3.41505580000000        1.34882796911093       0.687869711344893     
   3.42866160000000        1.82314765871057       0.569150029029933     
   3.44226740000000        2.31975986223861       0.549657038946531     
   3.45587320000000        2.84501636430307       0.578054609805021     
   3.46947900000000        3.40620952052552       0.682469128222820     
   3.48308480000000        3.88793552797037       0.897637295409735     
   3.49669060000000        4.35099461878896       0.884511715746068     
   3.51029640000000        5.11882337606197       0.918301874586906     
   3.52390220000000        6.05683013284432        1.09007267191015     
   3.53750800000000        7.22288520525293        1.40999470660668     
   3.55111380000000        8.75703503301111        1.98247728298637     
   3.56471960000000        10.9011561228414        3.11413825813914     
   3.57832540000000        13.9217932339123        5.67340497822680     
   3.59193120000000        17.7834084513977        12.2552946999534     
