# energy, eels_NLFC_w, eels_LFC_w
0.000000, -0.000000, -0.000000
0.020017, 0.000071, 0.000033
0.040066, 0.000142, 0.000066
0.060149, 0.000213, 0.000099
0.080266, 0.000285, 0.000133
0.100416, 0.000356, 0.000166
0.120599, 0.000428, 0.000200
0.140817, 0.000501, 0.000234
0.161067, 0.000574, 0.000268
0.181352, 0.000648, 0.000303
0.201671, 0.000722, 0.000338
0.222023, 0.000797, 0.000373
0.242410, 0.000872, 0.000409
0.262831, 0.000948, 0.000445
0.283286, 0.001025, 0.000482
0.303775, 0.001103, 0.000519
0.324299, 0.001182, 0.000557
0.344857, 0.001262, 0.000596
0.365449, 0.001343, 0.000635
0.386077, 0.001426, 0.000675
0.406739, 0.001509, 0.000716
0.427436, 0.001594, 0.000758
0.448168, 0.001681, 0.000801
0.468935, 0.001769, 0.000845
0.489737, 0.001860, 0.000890
0.510574, 0.001951, 0.000937
0.531447, 0.002046, 0.000984
0.552355, 0.002142, 0.001033
0.573298, 0.002240, 0.001084
0.594277, 0.002342, 0.001137
0.615292, 0.002446, 0.001191
0.636342, 0.002553, 0.001248
0.657428, 0.002663, 0.001306
0.678550, 0.002777, 0.001367
0.699708, 0.002894, 0.001431
0.720903, 0.003016, 0.001498
0.742133, 0.003142, 0.001567
0.763400, 0.003273, 0.001641
0.784703, 0.003410, 0.001718
0.806042, 0.003552, 0.001799
0.827418, 0.003701, 0.001885
0.848831, 0.003857, 0.001976
0.870280, 0.004021, 0.002073
0.891767, 0.004194, 0.002176
0.913290, 0.004377, 0.002286
0.934850, 0.004570, 0.002405
0.956448, 0.004776, 0.002532
0.978083, 0.004995, 0.002669
0.999755, 0.005229, 0.002818
1.021464, 0.005480, 0.002980
1.043211, 0.005750, 0.003156
1.064996, 0.006041, 0.003348
1.086818, 0.006356, 0.003558
1.108678, 0.006696, 0.003788
1.130576, 0.007064, 0.004039
1.152512, 0.007463, 0.004313
1.174487, 0.007893, 0.004610
1.196499, 0.008356, 0.004932
1.218550, 0.008852, 0.005276
1.240639, 0.009381, 0.005642
1.262767, 0.009943, 0.006028
1.284933, 0.010536, 0.006433
1.307138, 0.011161, 0.006853
1.329382, 0.011817, 0.007289
1.351664, 0.012504, 0.007739
1.373986, 0.013223, 0.008202
1.396347, 0.013972, 0.008679
1.418747, 0.014752, 0.009170
1.441186, 0.015561, 0.009675
1.463665, 0.016395, 0.010193
1.486184, 0.017252, 0.010724
1.508742, 0.018128, 0.011268
1.531339, 0.019018, 0.011822
1.553977, 0.019916, 0.012386
1.576655, 0.020817, 0.012956
1.599372, 0.021715, 0.013530
1.622130, 0.022606, 0.014104
1.644928, 0.023486, 0.014675
1.667767, 0.024353, 0.015241
1.690646, 0.025208, 0.015800
1.713565, 0.026054, 0.016350
1.736525, 0.026895, 0.016892
1.759526, 0.027735, 0.017426
1.782568, 0.028575, 0.017953
1.805651, 0.029417, 0.018473
1.828776, 0.030260, 0.018988
1.851941, 0.031103, 0.019497
1.875148, 0.031946, 0.020002
1.898396, 0.032787, 0.020502
1.921686, 0.033631, 0.020998
1.945017, 0.034481, 0.021489
1.968391, 0.035343, 0.021975
1.991806, 0.036225, 0.022459
2.015263, 0.037135, 0.022940
2.038763, 0.038081, 0.023421
2.062305, 0.039070, 0.023905
2.085889, 0.040105, 0.024390
2.109515, 0.041186, 0.024876
2.133184, 0.042309, 0.025359
2.156896, 0.043468, 0.025834
2.180651, 0.044653, 0.026294
2.204449, 0.045855, 0.026733
2.228289, 0.047065, 0.027142
2.252173, 0.048275, 0.027516
2.276101, 0.049483, 0.027846
2.300071, 0.050685, 0.028126
2.324086, 0.051881, 0.028347
2.348143, 0.053076, 0.028501
2.372245, 0.054275, 0.028576
2.396391, 0.055482, 0.028564
2.420580, 0.056706, 0.028454
2.444814, 0.057949, 0.028241
2.469092, 0.059208, 0.027923
2.493414, 0.060476, 0.027502
2.517781, 0.061733, 0.026985
2.542192, 0.062955, 0.026382
2.566649, 0.064106, 0.025701
2.591150, 0.065144, 0.024951
2.615696, 0.066019, 0.024137
2.640287, 0.066674, 0.023264
2.664923, 0.067043, 0.022334
2.689605, 0.067064, 0.021350
2.714332, 0.066674, 0.020317
2.739105, 0.065828, 0.019246
2.763924, 0.064497, 0.018148
2.788789, 0.062680, 0.017042
2.813699, 0.060405, 0.015947
2.838656, 0.057728, 0.014883
2.863659, 0.054730, 0.013868
2.888708, 0.051512, 0.012919
2.913804, 0.048185, 0.012044
2.938946, 0.044861, 0.011248
2.964135, 0.041642, 0.010532
2.989371, 0.038611, 0.009894
3.014654, 0.035823, 0.009327
3.039985, 0.033313, 0.008828
3.065362, 0.031090, 0.008391
3.090787, 0.029149, 0.008010
3.116260, 0.027475, 0.007681
3.141780, 0.026045, 0.007400
3.167348, 0.024837, 0.007163
3.192965, 0.023827, 0.006966
3.218629, 0.022992, 0.006805
3.244341, 0.022314, 0.006678
3.270102, 0.021776, 0.006582
3.295911, 0.021365, 0.006515
3.321769, 0.021069, 0.006476
3.347676, 0.020880, 0.006462
3.373632, 0.020790, 0.006472
3.399636, 0.020794, 0.006507
3.425690, 0.020889, 0.006565
3.451793, 0.021072, 0.006647
3.477946, 0.021339, 0.006752
3.504149, 0.021690, 0.006879
3.530401, 0.022122, 0.007030
3.556703, 0.022632, 0.007204
3.583055, 0.023217, 0.007400
3.609457, 0.023877, 0.007618
3.635910, 0.024609, 0.007860
3.662413, 0.025412, 0.008124
3.688966, 0.026286, 0.008411
3.715571, 0.027232, 0.008722
3.742226, 0.028252, 0.009058
3.768933, 0.029350, 0.009419
3.795690, 0.030528, 0.009806
3.822499, 0.031789, 0.010221
3.849360, 0.033132, 0.010664
3.876272, 0.034555, 0.011134
3.903236, 0.036051, 0.011632
3.930252, 0.037612, 0.012155
3.957320, 0.039232, 0.012704
3.984440, 0.040901, 0.013276
4.011613, 0.042614, 0.013871
4.038838, 0.044363, 0.014487
4.066116, 0.046142, 0.015122
4.093446, 0.047945, 0.015775
4.120830, 0.049766, 0.016443
4.148267, 0.051601, 0.017124
4.175757, 0.053446, 0.017816
4.203301, 0.055296, 0.018518
4.230898, 0.057144, 0.019225
4.258550, 0.058982, 0.019934
4.286255, 0.060803, 0.020638
4.314014, 0.062601, 0.021329
4.341827, 0.064374, 0.021998
4.369695, 0.066122, 0.022636
4.397618, 0.067847, 0.023235
4.425595, 0.069553, 0.023788
4.453627, 0.071247, 0.024293
4.481714, 0.072934, 0.024749
4.509857, 0.074620, 0.025158
4.538054, 0.076304, 0.025526
4.566308, 0.077984, 0.025856
4.594617, 0.079651, 0.026153
4.622982, 0.081298, 0.026420
4.651403, 0.082915, 0.026659
4.679880, 0.084496, 0.026874
4.708414, 0.086033, 0.027067
4.737004, 0.087515, 0.027238
4.765651, 0.088927, 0.027388
4.794355, 0.090257, 0.027520
4.823116, 0.091495, 0.027635
4.851934, 0.092638, 0.027738
4.880809, 0.093685, 0.027835
4.909742, 0.094641, 0.027934
4.938733, 0.095522, 0.028038
4.967782, 0.096350, 0.028152
4.996889, 0.097163, 0.028275
5.026054, 0.098006, 0.028407
5.055277, 0.098930, 0.028549
5.084559, 0.099979, 0.028701
5.113900, 0.101189, 0.028867
5.143300, 0.102588, 0.029053
5.172759, 0.104192, 0.029266
5.202277, 0.106011, 0.029514
5.231855, 0.108047, 0.029805
5.261493, 0.110294, 0.030145
5.291190, 0.112738, 0.030536
5.320948, 0.115359, 0.030982
5.350766, 0.118137, 0.031484
5.380644, 0.121057, 0.032043
5.410582, 0.124112, 0.032665
5.440582, 0.127307, 0.033355
5.470642, 0.130648, 0.034121
5.500764, 0.134139, 0.034968
5.530947, 0.137766, 0.035899
5.561191, 0.141488, 0.036912
5.591498, 0.145234, 0.037997
5.621866, 0.148911, 0.039139
5.652296, 0.152417, 0.040312
5.682789, 0.155666, 0.041491
5.713343, 0.158604, 0.042653
5.743961, 0.161219, 0.043779
5.774642, 0.163537, 0.044862
5.805385, 0.165610, 0.045899
5.836192, 0.167502, 0.046896
5.867062, 0.169274, 0.047863
5.897996, 0.170990, 0.048812
5.928994, 0.172709, 0.049757
5.960056, 0.174495, 0.050708
5.991182, 0.176420, 0.051677
6.022372, 0.178572, 0.052669
6.053627, 0.181067, 0.053695
6.084947, 0.184044, 0.054775
6.116332, 0.187653, 0.055928
6.147782, 0.192021, 0.057176
6.179298, 0.197223, 0.058522
6.210879, 0.203252, 0.059951
6.242527, 0.210015, 0.061424
6.274240, 0.217357, 0.062884
6.306019, 0.225101, 0.064273
6.337865, 0.233103, 0.065543
6.369778, 0.241283, 0.066675
6.401758, 0.249638, 0.067680
6.433804, 0.258234, 0.068589
6.465918, 0.267176, 0.069445
6.498100, 0.276585, 0.070288
6.530349, 0.286574, 0.071140
6.562666, 0.297248, 0.072013
6.595052, 0.308702, 0.072905
6.627505, 0.321046, 0.073809
6.660028, 0.334416, 0.074716
6.692619, 0.348982, 0.075615
6.725279, 0.364944, 0.076499
6.758009, 0.382536, 0.077359
6.790808, 0.402030, 0.078181
6.823676, 0.423741, 0.078929
6.856615, 0.448008, 0.079538
6.889624, 0.475094, 0.079917
6.922703, 0.505024, 0.079963
6.955853, 0.537410, 0.079594
6.989073, 0.571348, 0.078775
7.022365, 0.605427, 0.077528
7.055728, 0.637864, 0.075916
7.089162, 0.666747, 0.074026
7.122668, 0.690356, 0.071949
7.156246, 0.707502, 0.069771
7.189897, 0.717770, 0.067575
7.223619, 0.721596, 0.065439
7.257415, 0.720138, 0.063437
7.291283, 0.715024, 0.061623
7.325225, 0.708047, 0.060034
7.359239, 0.700870, 0.058683
7.393328, 0.694795, 0.057563
7.427490, 0.690632, 0.056651
7.461727, 0.688717, 0.055916
7.496037, 0.689046, 0.055325
7.530423, 0.691463, 0.054848
7.564883, 0.695799, 0.054461
7.599418, 0.701921, 0.054151
7.634029, 0.709717, 0.053913
7.668715, 0.719043, 0.053751
7.703477, 0.729699, 0.053667
7.738314, 0.741431, 0.053668
7.773229, 0.753972, 0.053756
7.808220, 0.767105, 0.053933
7.843287, 0.780732, 0.054197
7.878432, 0.794938, 0.054538
7.913654, 0.810013, 0.054938
7.948953, 0.826376, 0.055378
7.984331, 0.844421, 0.055847
8.019786, 0.864296, 0.056344
8.055320, 0.885636, 0.056886
8.090933, 0.907230, 0.057504
8.126624, 0.926790, 0.058245
8.162394, 0.941028, 0.059155
8.198244, 0.946210, 0.060266
8.234174, 0.939014, 0.061581
8.270183, 0.917414, 0.063076
8.306273, 0.881324, 0.064695
8.342443, 0.832742, 0.066367
8.378694, 0.775260, 0.068010
8.415025, 0.713123, 0.069543
8.451438, 0.650272, 0.070895
8.487933, 0.589717, 0.072014
8.524509, 0.533379, 0.072885
8.561168, 0.482264, 0.073541
8.597909, 0.436743, 0.074052
8.634732, 0.396779, 0.074513
8.671639, 0.362063, 0.075026
8.708629, 0.332112, 0.075687
8.745702, 0.306348, 0.076583
8.782859, 0.284177, 0.077795
8.820100, 0.265041, 0.079400
8.857425, 0.248445, 0.081467
8.894835, 0.233961, 0.084047
8.932330, 0.221225, 0.087153
8.969910, 0.209930, 0.090743
9.007575, 0.199804, 0.094718
9.045327, 0.190618, 0.098940
9.083164, 0.182192, 0.103276
9.121088, 0.174411, 0.107635
9.159098, 0.167205, 0.111987
9.197196, 0.160528, 0.116359
9.235380, 0.154327, 0.120812
9.273653, 0.148536, 0.125411
9.312013, 0.143084, 0.130209
9.350461, 0.137919, 0.135248
9.388998, 0.133020, 0.140567
9.427624, 0.128380, 0.146211
9.466338, 0.123999, 0.152224
9.505142, 0.119869, 0.158657
9.544036, 0.115975, 0.165582
9.583020, 0.112291, 0.173089
9.622094, 0.108785, 0.181258
9.661259, 0.105430, 0.190142
9.700515, 0.102215, 0.199791
9.739862, 0.099155, 0.210295
9.779300, 0.096267, 0.221793
9.818831, 0.093560, 0.234454
9.858454, 0.091032, 0.248446
9.898169, 0.088684, 0.263834
9.937977, 0.086516, 0.280359
9.977879, 0.084532, 0.297220
10.017874, 0.082732, 0.313017
10.057963, 0.081114, 0.325968
10.098146, 0.079675, 0.334292
10.138423, 0.078407, 0.336598
10.178796, 0.077300, 0.332249
10.219264, 0.076339, 0.321604
10.259827, 0.075502, 0.305928
10.300486, 0.074763, 0.286968
10.341241, 0.074103, 0.266463
10.382093, 0.073522, 0.245850
10.423042, 0.073035, 0.226168
10.464088, 0.072652, 0.208046
10.505232, 0.072368, 0.191736
10.546473, 0.072165, 0.177230
10.587813, 0.072027, 0.164396
10.629252, 0.071953, 0.153083
10.670789, 0.071952, 0.143163
10.712426, 0.072046, 0.134540
10.754163, 0.072251, 0.127123
10.796000, 0.072573, 0.120807
10.837937, 0.072997, 0.115461
10.879975, 0.073494, 0.110940
10.922114, 0.074030, 0.107086
10.964355, 0.074583, 0.103755
11.006697, 0.075160, 0.100852
11.049142, 0.075788, 0.098339
11.091689, 0.076484, 0.096194
11.134340, 0.077249, 0.094385
11.177094, 0.078071, 0.092860
11.219951, 0.078941, 0.091571
11.262913, 0.079862, 0.090480
11.305979, 0.080849, 0.089572
11.349150, 0.081922, 0.088847
11.392427, 0.083094, 0.088300
11.435809, 0.084370, 0.087913
11.479297, 0.085749, 0.087652
11.522892, 0.087227, 0.087490
11.566593, 0.088811, 0.087433
11.610402, 0.090506, 0.087513
11.654318, 0.092308, 0.087757
11.698342, 0.094205, 0.088168
11.742475, 0.096187, 0.088719
11.786717, 0.098245, 0.089370
11.831067, 0.100377, 0.090088
11.875528, 0.102603, 0.090869
11.920098, 0.104964, 0.091747
11.964779, 0.107484, 0.092749
12.009571, 0.110142, 0.093865
12.054474, 0.112891, 0.095045
12.099488, 0.115679, 0.096220
12.144615, 0.118462, 0.097333
12.189854, 0.121204, 0.098356
12.235207, 0.123892, 0.099302
12.280672, 0.126545, 0.100217
12.326252, 0.129216, 0.101163
12.371945, 0.131952, 0.102200
12.417754, 0.134768, 0.103364
12.463677, 0.137648, 0.104664
12.509716, 0.140568, 0.106103
12.555871, 0.143513, 0.107693
12.602142, 0.146442, 0.109425
12.648530, 0.149270, 0.111243
12.695035, 0.151907, 0.113051
12.741658, 0.154302, 0.114768
12.788399, 0.156452, 0.116366
12.835259, 0.158375, 0.117860
12.882238, 0.160088, 0.119269
12.929336, 0.161626, 0.120601
12.976555, 0.163045, 0.121855
13.023894, 0.164410, 0.123030
13.071353, 0.165740, 0.124117
13.118935, 0.166962, 0.125064
13.166637, 0.167950, 0.125775
13.214463, 0.168605, 0.126162
13.262411, 0.168888, 0.126176
13.310482, 0.168804, 0.125800
13.358677, 0.168417, 0.125033
13.406996, 0.167874, 0.123913
13.455440, 0.167380, 0.122530
13.504009, 0.167117, 0.121011
13.552703, 0.167225, 0.119498
13.601524, 0.167809, 0.118120
13.650471, 0.168921, 0.116957
13.699546, 0.170568, 0.116047
13.748748, 0.172761, 0.115427
13.798078, 0.175543, 0.115145
13.847537, 0.178943, 0.115225
13.897125, 0.182934, 0.115624
13.946843, 0.187451, 0.116251
13.996690, 0.192440, 0.117029
14.046669, 0.197863, 0.117929
14.096778, 0.203656, 0.118950
14.147020, 0.209695, 0.120087
14.197393, 0.215815, 0.121315
14.247899, 0.221825, 0.122600
14.298538, 0.227535, 0.123903
14.349311, 0.232809, 0.125210
14.400219, 0.237596, 0.126553
14.451261, 0.241916, 0.127983
14.502439, 0.245834, 0.129531
14.553752, 0.249389, 0.131216
14.605202, 0.252547, 0.133068
14.656789, 0.255258, 0.135132
14.708514, 0.257525, 0.137454
14.760376, 0.259422, 0.140051
14.812378, 0.261071, 0.142888
14.864518, 0.262601, 0.145875
14.916799, 0.264087, 0.148910
14.969219, 0.265523, 0.151926
15.021781, 0.266813, 0.154887
15.074484, 0.267793, 0.157778
15.127329, 0.268310, 0.160576
15.180316, 0.268276, 0.163224
15.233447, 0.267650, 0.165643
15.286721, 0.266405, 0.167792
15.340140, 0.264558, 0.169699
15.393704, 0.262188, 0.171423
15.447414, 0.259391, 0.172978
15.501269, 0.256217, 0.174315
15.555271, 0.252659, 0.175368
15.609421, 0.248762, 0.176112
15.663718, 0.244706, 0.176584
15.718164, 0.240730, 0.176822
15.772760, 0.236986, 0.176799
15.827504, 0.233488, 0.176449
15.882400, 0.230173, 0.175755
15.937446, 0.227026, 0.174805
15.992644, 0.224111, 0.173739
16.047994, 0.221516, 0.172654
16.103497, 0.219311, 0.171565
16.159154, 0.217561, 0.170468
16.214964, 0.216329, 0.169406
16.270930, 0.215661, 0.168461
16.327051, 0.215600, 0.167734
16.383328, 0.216181, 0.167311
16.439762, 0.217361, 0.167221
16.496353, 0.219001, 0.167430
16.553102, 0.220891, 0.167872
16.610010, 0.222814, 0.168473
16.667077, 0.224629, 0.169164
16.724305, 0.226397, 0.169936
16.781693, 0.228385, 0.170892
16.839242, 0.230857, 0.172199
16.896954, 0.233896, 0.173988
16.954828, 0.237524, 0.176327
17.012866, 0.241820, 0.179246
17.071068, 0.246745, 0.182714
17.129435, 0.251984, 0.186608
17.187967, 0.257055, 0.190737
17.246666, 0.261466, 0.194827
17.305531, 0.264760, 0.198528
17.364565, 0.266638, 0.201523
17.423766, 0.267136, 0.203657
17.483137, 0.266656, 0.204985
17.542678, 0.265834, 0.205769
17.602389, 0.265270, 0.206387
17.662271, 0.265299, 0.207164
17.722326, 0.265966, 0.208329
17.782553, 0.267197, 0.210059
17.842954, 0.268940, 0.212439
17.903530, 0.271124, 0.215409
17.964280, 0.273606, 0.218797
18.025206, 0.276313, 0.222419
18.086308, 0.279300, 0.226128
18.147588, 0.282578, 0.229754
18.209047, 0.286024, 0.233078
18.270683, 0.289477, 0.235854
18.332500, 0.292911, 0.237946
18.394497, 0.296502, 0.239443
18.456676, 0.300420, 0.240574
18.519036, 0.304632, 0.241433
18.581579, 0.309013, 0.241877
18.644306, 0.313486, 0.241727
18.707217, 0.317897, 0.240918
18.770314, 0.321867, 0.239414
18.833597, 0.324925, 0.237110
18.897067, 0.326841, 0.233858
18.960724, 0.327748, 0.229687
19.024570, 0.327941, 0.224919
19.088605, 0.327642, 0.220001
19.152831, 0.326957, 0.215284
19.217248, 0.325948, 0.210897
19.281857, 0.324796, 0.206870
19.346658, 0.323948, 0.203366
19.411653, 0.324008, 0.200690
19.476843, 0.325549, 0.199074
19.542229, 0.329176, 0.198695
19.607810, 0.335571, 0.199743
19.673589, 0.345236, 0.202308
19.739566, 0.358239, 0.206313
19.805742, 0.374258, 0.211586
19.872118, 0.392789, 0.217980
19.938694, 0.413376, 0.225368
20.005473, 0.435799, 0.233656
20.072454, 0.460221, 0.242976
20.139638, 0.486954, 0.253671
20.207027, 0.515660, 0.265919
20.274622, 0.544976, 0.279491
20.342422, 0.573421, 0.293721
20.410431, 0.600551, 0.307352
20.478647, 0.626489, 0.318775
20.547072, 0.650799, 0.326894
20.615708, 0.672441, 0.331581
20.684555, 0.690352, 0.333312
20.753614, 0.704076, 0.332672
20.822886, 0.714406, 0.330098
20.892373, 0.723689, 0.326085
20.962074, 0.734913, 0.321488
21.031991, 0.750086, 0.317502
21.102126, 0.768668, 0.315188
21.172478, 0.787444, 0.315001
21.243050, 0.803146, 0.316902
21.313842, 0.815151, 0.320799
21.384855, 0.825010, 0.326595
21.456091, 0.834658, 0.333917
21.527549, 0.845328, 0.342198
21.599232, 0.856627, 0.351202
21.671141, 0.866549, 0.361090
21.743275, 0.872712, 0.372125
21.815638, 0.873124, 0.384481
21.888228, 0.866487, 0.398059
21.961049, 0.853043, 0.412672
22.034100, 0.834271, 0.428270
22.107383, 0.811607, 0.444727
22.180900, 0.786137, 0.461480
22.254650, 0.759502, 0.477499
22.328635, 0.733641, 0.491704
22.402857, 0.709654, 0.503212
22.477316, 0.687973, 0.511684
22.552014, 0.668756, 0.517750
22.626952, 0.651604, 0.522488
22.702131, 0.635845, 0.526127
22.777551, 0.621433, 0.527738
22.853215, 0.609034, 0.526184
22.929123, 0.599089, 0.521506
23.005277, 0.591032, 0.514964
23.081678, 0.583583, 0.507877
23.158327, 0.575536, 0.500771
23.235225, 0.566482, 0.493539
23.312373, 0.556035, 0.485884
23.389773, 0.543531, 0.477121
23.467426, 0.529826, 0.466822
23.545333, 0.517209, 0.455818
23.623496, 0.506946, 0.445351
23.701915, 0.498638, 0.435873
23.780592, 0.491592, 0.427291
23.859528, 0.485531, 0.419632
23.938725, 0.479694, 0.412853
24.018183, 0.472389, 0.406327
24.097905, 0.462427, 0.399023
24.177891, 0.450532, 0.390581
24.258142, 0.438349, 0.381636
24.338661, 0.427130, 0.373288
24.419448, 0.417726, 0.366406
24.500505, 0.410169, 0.360790
24.581832, 0.403531, 0.355442
24.663432, 0.396839, 0.349858
24.745306, 0.390029, 0.344199
24.827455, 0.383602, 0.338734
24.909881, 0.377538, 0.333391
24.992584, 0.371545, 0.328004
25.075567, 0.365968, 0.322780
25.158831, 0.361518, 0.318133
25.242377, 0.358316, 0.314212
25.326206, 0.356168, 0.310769
25.410321, 0.355169, 0.307735
25.494722, 0.355528, 0.305130
25.579411, 0.357907, 0.303044
25.664390, 0.363604, 0.302251
25.749659, 0.373470, 0.303942
25.835221, 0.386459, 0.308325
25.921077, 0.399674, 0.314138
26.007229, 0.410012, 0.319685
26.093677, 0.416539, 0.324224
26.180424, 0.420869, 0.328337
26.267471, 0.424553, 0.332675
26.354820, 0.428163, 0.337354
26.442472, 0.431304, 0.341984
26.530429, 0.433322, 0.345905
26.618692, 0.434473, 0.348893
26.707264, 0.435219, 0.351063
26.796145, 0.435851, 0.352553
26.885337, 0.437180, 0.354085
26.974842, 0.439316, 0.356670
27.064662, 0.440433, 0.360588
27.154798, 0.438824, 0.365144
27.245251, 0.434222, 0.369319
27.336025, 0.426921, 0.372478
27.427119, 0.416929, 0.374576
27.518537, 0.404849, 0.375864
27.610279, 0.392198, 0.376918
27.702348, 0.379752, 0.378253
27.794744, 0.367240, 0.379937
27.887471, 0.355001, 0.382005
27.980530, 0.343992, 0.384502
28.073922, 0.334539, 0.387335
28.167649, 0.326407, 0.390263
28.261713, 0.319858, 0.393447
28.356116, 0.314694, 0.397676
28.450860, 0.310427, 0.403552
28.545947, 0.307300, 0.410937
28.641378, 0.304928, 0.419469
28.737155, 0.302324, 0.428780
28.833280, 0.299637, 0.438066
28.929756, 0.297816, 0.446893
29.026584, 0.296620, 0.455308
29.123765, 0.295384, 0.463271
29.221303, 0.293854, 0.471095
29.319198, 0.291413, 0.478514
29.417453, 0.288053, 0.485255
29.516071, 0.283988, 0.491664
29.615051, 0.278435, 0.498047
29.714398, 0.270853, 0.504097
29.814113, 0.262609, 0.509090
29.914197, 0.255793, 0.512416
30.014654, 0.250842, 0.514168
30.115484, 0.247752, 0.515035
30.216691, 0.247837, 0.516619
30.318276, 0.254066, 0.520509
30.420242, 0.270332, 0.526430
30.522589, 0.300413, 0.533152
30.625322, 0.345787, 0.540333
30.728442, 0.403218, 0.547785
