# energy, eels_NLFC_w, eels_LFC_w
0.000000, -0.000000, 0.000000
0.020017, 0.000102, 0.000036
0.040066, 0.000203, 0.000073
0.060149, 0.000305, 0.000109
0.080266, 0.000408, 0.000146
0.100416, 0.000511, 0.000182
0.120599, 0.000614, 0.000219
0.140817, 0.000719, 0.000257
0.161067, 0.000824, 0.000294
0.181352, 0.000929, 0.000332
0.201671, 0.001036, 0.000370
0.222023, 0.001144, 0.000408
0.242410, 0.001253, 0.000447
0.262831, 0.001363, 0.000486
0.283286, 0.001474, 0.000526
0.303775, 0.001587, 0.000566
0.324299, 0.001702, 0.000606
0.344857, 0.001818, 0.000648
0.365449, 0.001937, 0.000690
0.386077, 0.002057, 0.000732
0.406739, 0.002179, 0.000775
0.427436, 0.002304, 0.000819
0.448168, 0.002432, 0.000864
0.468935, 0.002562, 0.000910
0.489737, 0.002695, 0.000957
0.510574, 0.002831, 0.001005
0.531447, 0.002970, 0.001054
0.552355, 0.003113, 0.001104
0.573298, 0.003260, 0.001156
0.594277, 0.003412, 0.001209
0.615292, 0.003568, 0.001264
0.636342, 0.003728, 0.001321
0.657428, 0.003895, 0.001379
0.678550, 0.004066, 0.001440
0.699708, 0.004245, 0.001502
0.720903, 0.004430, 0.001567
0.742133, 0.004622, 0.001635
0.763400, 0.004822, 0.001706
0.784703, 0.005032, 0.001780
0.806042, 0.005250, 0.001857
0.827418, 0.005480, 0.001939
0.848831, 0.005721, 0.002025
0.870280, 0.005974, 0.002115
0.891767, 0.006242, 0.002211
0.913290, 0.006525, 0.002313
0.934850, 0.006826, 0.002422
0.956448, 0.007145, 0.002538
0.978083, 0.007485, 0.002662
0.999755, 0.007848, 0.002796
1.021464, 0.008237, 0.002939
1.043211, 0.008654, 0.003094
1.064996, 0.009102, 0.003261
1.086818, 0.009584, 0.003441
1.108678, 0.010102, 0.003636
1.130576, 0.010660, 0.003847
1.152512, 0.011263, 0.004075
1.174487, 0.011912, 0.004322
1.196499, 0.012614, 0.004588
1.218550, 0.013372, 0.004876
1.240639, 0.014193, 0.005186
1.262767, 0.015080, 0.005520
1.284933, 0.016040, 0.005879
1.307138, 0.017079, 0.006262
1.329382, 0.018201, 0.006670
1.351664, 0.019410, 0.007101
1.373986, 0.020710, 0.007554
1.396347, 0.022099, 0.008027
1.418747, 0.023578, 0.008516
1.441186, 0.025142, 0.009020
1.463665, 0.026786, 0.009534
1.486184, 0.028500, 0.010054
1.508742, 0.030277, 0.010576
1.531339, 0.032103, 0.011097
1.553977, 0.033967, 0.011612
1.576655, 0.035856, 0.012119
1.599372, 0.037758, 0.012618
1.622130, 0.039661, 0.013106
1.644928, 0.041555, 0.013585
1.667767, 0.043431, 0.014053
1.690646, 0.045283, 0.014511
1.713565, 0.047103, 0.014957
1.736525, 0.048885, 0.015391
1.759526, 0.050620, 0.015808
1.782568, 0.052301, 0.016206
1.805651, 0.053917, 0.016578
1.828776, 0.055457, 0.016921
1.851941, 0.056908, 0.017227
1.875148, 0.058260, 0.017495
1.898396, 0.059508, 0.017723
1.921686, 0.060651, 0.017913
1.945017, 0.061697, 0.018070
1.968391, 0.062661, 0.018203
1.991806, 0.063563, 0.018320
2.015263, 0.064428, 0.018432
2.038763, 0.065284, 0.018549
2.062305, 0.066164, 0.018680
2.085889, 0.067099, 0.018831
2.109515, 0.068123, 0.019007
2.133184, 0.069268, 0.019210
2.156896, 0.070564, 0.019439
2.180651, 0.072036, 0.019688
2.204449, 0.073703, 0.019950
2.228289, 0.075572, 0.020216
2.252173, 0.077641, 0.020474
2.276101, 0.079896, 0.020712
2.300071, 0.082314, 0.020917
2.324086, 0.084860, 0.021078
2.348143, 0.087493, 0.021184
2.372245, 0.090159, 0.021227
2.396391, 0.092796, 0.021200
2.420580, 0.095334, 0.021098
2.444814, 0.097698, 0.020920
2.469092, 0.099813, 0.020667
2.493414, 0.101610, 0.020345
2.517781, 0.103033, 0.019963
2.542192, 0.104043, 0.019534
2.566649, 0.104624, 0.019073
2.591150, 0.104783, 0.018594
2.615696, 0.104539, 0.018111
2.640287, 0.103923, 0.017636
2.664923, 0.102968, 0.017178
2.689605, 0.101705, 0.016744
2.714332, 0.100162, 0.016340
2.739105, 0.098361, 0.015970
2.763924, 0.096320, 0.015638
2.788789, 0.094049, 0.015346
2.813699, 0.091558, 0.015097
2.838656, 0.088855, 0.014892
2.863659, 0.085951, 0.014733
2.888708, 0.082860, 0.014622
2.913804, 0.079602, 0.014557
2.938946, 0.076207, 0.014538
2.964135, 0.072710, 0.014560
2.989371, 0.069153, 0.014617
3.014654, 0.065585, 0.014699
3.039985, 0.062053, 0.014789
3.065362, 0.058601, 0.014870
3.090787, 0.055271, 0.014916
3.116260, 0.052100, 0.014905
3.141780, 0.049116, 0.014813
3.167348, 0.046347, 0.014625
3.192965, 0.043813, 0.014339
3.218629, 0.041531, 0.013967
3.244341, 0.039511, 0.013534
3.270102, 0.037759, 0.013073
3.295911, 0.036276, 0.012618
3.321769, 0.035058, 0.012200
3.347676, 0.034096, 0.011839
3.373632, 0.033378, 0.011547
3.399636, 0.032888, 0.011331
3.425690, 0.032611, 0.011191
3.451793, 0.032531, 0.011124
3.477946, 0.032631, 0.011128
3.504149, 0.032901, 0.011198
3.530401, 0.033329, 0.011331
3.556703, 0.033909, 0.011525
3.583055, 0.034640, 0.011779
3.609457, 0.035520, 0.012093
3.635910, 0.036551, 0.012465
3.662413, 0.037734, 0.012894
3.688966, 0.039065, 0.013378
3.715571, 0.040541, 0.013914
3.742226, 0.042151, 0.014493
3.768933, 0.043881, 0.015111
3.795690, 0.045718, 0.015759
3.822499, 0.047645, 0.016432
3.849360, 0.049651, 0.017124
3.876272, 0.051725, 0.017833
3.903236, 0.053862, 0.018556
3.930252, 0.056057, 0.019295
3.957320, 0.058310, 0.020050
3.984440, 0.060618, 0.020822
4.011613, 0.062975, 0.021614
4.038838, 0.065375, 0.022425
4.066116, 0.067805, 0.023258
4.093446, 0.070251, 0.024111
4.120830, 0.072692, 0.024984
4.148267, 0.075107, 0.025873
4.175757, 0.077473, 0.026775
4.203301, 0.079774, 0.027684
4.230898, 0.081998, 0.028597
4.258550, 0.084139, 0.029511
4.286255, 0.086197, 0.030424
4.314014, 0.088175, 0.031335
4.341827, 0.090075, 0.032242
4.369695, 0.091905, 0.033145
4.397618, 0.093668, 0.034044
4.425595, 0.095368, 0.034939
4.453627, 0.097006, 0.035826
4.481714, 0.098580, 0.036701
4.509857, 0.100086, 0.037560
4.538054, 0.101518, 0.038394
4.566308, 0.102870, 0.039193
4.594617, 0.104140, 0.039949
4.622982, 0.105329, 0.040655
4.651403, 0.106451, 0.041307
4.679880, 0.107520, 0.041907
4.708414, 0.108560, 0.042459
4.737004, 0.109592, 0.042970
4.765651, 0.110641, 0.043451
4.794355, 0.111727, 0.043913
4.823116, 0.112869, 0.044367
4.851934, 0.114080, 0.044822
4.880809, 0.115373, 0.045290
4.909742, 0.116757, 0.045783
4.938733, 0.118239, 0.046311
4.967782, 0.119828, 0.046886
4.996889, 0.121528, 0.047517
5.026054, 0.123342, 0.048213
5.055277, 0.125267, 0.048975
5.084559, 0.127289, 0.049804
5.113900, 0.129382, 0.050694
5.143300, 0.131509, 0.051631
5.172759, 0.133633, 0.052603
5.202277, 0.135727, 0.053598
5.231855, 0.137775, 0.054610
5.261493, 0.139775, 0.055640
5.291190, 0.141733, 0.056694
5.320948, 0.143658, 0.057783
5.350766, 0.145555, 0.058923
5.380644, 0.147424, 0.060133
5.410582, 0.149259, 0.061430
5.440582, 0.151052, 0.062829
5.470642, 0.152807, 0.064342
5.500764, 0.154532, 0.065979
5.530947, 0.156234, 0.067757
5.561191, 0.157912, 0.069694
5.591498, 0.159559, 0.071811
5.621866, 0.161164, 0.074119
5.652296, 0.162725, 0.076622
5.682789, 0.164247, 0.079307
5.713343, 0.165753, 0.082150
5.743961, 0.167283, 0.085113
5.774642, 0.168893, 0.088149
5.805385, 0.170642, 0.091204
5.836192, 0.172574, 0.094226
5.867062, 0.174692, 0.097172
5.897996, 0.176949, 0.100017
5.928994, 0.179249, 0.102747
5.960056, 0.181466, 0.105360
5.991182, 0.183470, 0.107861
6.022372, 0.185149, 0.110260
6.053627, 0.186444, 0.112570
6.084947, 0.187359, 0.114808
6.116332, 0.187979, 0.116990
6.147782, 0.188452, 0.119128
6.179298, 0.188961, 0.121232
6.210879, 0.189686, 0.123307
6.242527, 0.190783, 0.125351
6.274240, 0.192368, 0.127362
6.306019, 0.194528, 0.129345
6.337865, 0.197324, 0.131327
6.369778, 0.200797, 0.133363
6.401758, 0.204974, 0.135535
6.433804, 0.209866, 0.137938
6.465918, 0.215480, 0.140660
6.498100, 0.221823, 0.143763
6.530349, 0.228910, 0.147269
6.562666, 0.236778, 0.151152
6.595052, 0.245498, 0.155342
6.627505, 0.255187, 0.159724
6.660028, 0.265997, 0.164139
6.692619, 0.278103, 0.168370
6.725279, 0.291653, 0.172141
6.758009, 0.306745, 0.175143
6.790808, 0.323391, 0.177078
6.823676, 0.341523, 0.177720
6.856615, 0.360994, 0.176970
6.889624, 0.381593, 0.174873
6.922703, 0.403054, 0.171589
6.955853, 0.425050, 0.167338
6.989073, 0.447201, 0.162351
7.022365, 0.469077, 0.156843
7.055728, 0.490205, 0.150997
7.089162, 0.510049, 0.144970
7.122668, 0.527991, 0.138902
7.156246, 0.543386, 0.132929
7.189897, 0.555656, 0.127186
7.223619, 0.564428, 0.121789
7.257415, 0.569621, 0.116835
7.291283, 0.571470, 0.112390
7.325225, 0.570451, 0.108487
7.359239, 0.567181, 0.105131
7.393328, 0.562328, 0.102304
7.427490, 0.556558, 0.099975
7.461727, 0.550485, 0.098102
7.496037, 0.544640, 0.096634
7.530423, 0.539477, 0.095521
7.564883, 0.535418, 0.094715
7.599418, 0.532881, 0.094181
7.634029, 0.532254, 0.093889
7.668715, 0.533852, 0.093817
7.703477, 0.537877, 0.093951
7.738314, 0.544403, 0.094286
7.773229, 0.553410, 0.094822
7.808220, 0.564839, 0.095570
7.843287, 0.578678, 0.096544
7.878432, 0.595025, 0.097767
7.913654, 0.614116, 0.099272
7.948953, 0.636328, 0.101095
7.984331, 0.662138, 0.103278
8.019786, 0.692086, 0.105865
8.055320, 0.726749, 0.108914
8.090933, 0.766684, 0.112501
8.126624, 0.812296, 0.116725
8.162394, 0.863599, 0.121705
8.198244, 0.919883, 0.127583
8.234174, 0.979289, 0.134512
8.270183, 1.038308, 0.142649
8.306273, 1.091494, 0.152111
8.342443, 1.131977, 0.162914
8.378694, 1.153208, 0.174914
8.415025, 1.151253, 0.187783
8.451438, 1.126167, 0.201035
8.487933, 1.081603, 0.214078
8.524509, 1.023168, 0.226289
8.561168, 0.956664, 0.237080
8.597909, 0.887020, 0.245959
8.634732, 0.817928, 0.252580
8.671639, 0.751898, 0.256782
8.708629, 0.690481, 0.258650
8.745702, 0.634514, 0.258537
8.782859, 0.584325, 0.257018
8.820100, 0.539885, 0.254769
8.857425, 0.500936, 0.252424
8.894835, 0.467052, 0.250486
8.932330, 0.437670, 0.249290
8.969910, 0.412118, 0.248996
9.007575, 0.389686, 0.249628
9.045327, 0.369723, 0.251123
9.083164, 0.351699, 0.253375
9.121088, 0.335211, 0.256218
9.159098, 0.319970, 0.259397
9.197196, 0.305764, 0.262592
9.235380, 0.292413, 0.265530
9.273653, 0.279731, 0.268107
9.312013, 0.267551, 0.270429
9.350461, 0.255772, 0.272765
9.388998, 0.244359, 0.275467
9.427624, 0.233331, 0.278911
9.466338, 0.222729, 0.283488
9.505142, 0.212598, 0.289592
9.544036, 0.202967, 0.297597
9.583020, 0.193829, 0.307812
9.622094, 0.185146, 0.320438
9.661259, 0.176884, 0.335577
9.700515, 0.169038, 0.353268
9.739862, 0.161638, 0.373444
9.779300, 0.154734, 0.395757
9.818831, 0.148366, 0.419274
9.858454, 0.142544, 0.442138
9.898169, 0.137240, 0.461424
9.937977, 0.132416, 0.473528
9.977879, 0.128049, 0.475303
10.017874, 0.124128, 0.465448
10.057963, 0.120643, 0.445141
10.098146, 0.117570, 0.417414
10.138423, 0.114875, 0.385895
10.178796, 0.112507, 0.353749
10.219264, 0.110409, 0.323141
10.259827, 0.108538, 0.295214
10.300486, 0.106871, 0.270356
10.341241, 0.105406, 0.248537
10.382093, 0.104151, 0.229557
10.423042, 0.103119, 0.213167
10.464088, 0.102302, 0.199072
10.505232, 0.101675, 0.186931
10.546473, 0.101212, 0.176415
10.587813, 0.100899, 0.167277
10.629252, 0.100735, 0.159366
10.670789, 0.100712, 0.152568
10.712426, 0.100817, 0.146758
10.754163, 0.101049, 0.141799
10.796000, 0.101420, 0.137576
10.837937, 0.101941, 0.134000
10.879975, 0.102596, 0.130986
10.922114, 0.103355, 0.128440
10.964355, 0.104186, 0.126264
11.006697, 0.105066, 0.124369
11.049142, 0.105994, 0.122692
11.091689, 0.106995, 0.121210
11.134340, 0.108099, 0.119935
11.177094, 0.109293, 0.118863
11.219951, 0.110519, 0.117949
11.262913, 0.111714, 0.117137
11.305979, 0.112853, 0.116397
11.349150, 0.113952, 0.115734
11.392427, 0.115038, 0.115163
11.435809, 0.116123, 0.114678
11.479297, 0.117202, 0.114263
11.522892, 0.118254, 0.113894
11.566593, 0.119246, 0.113549
11.610402, 0.120143, 0.113200
11.654318, 0.120917, 0.112818
11.698342, 0.121578, 0.112389
11.742475, 0.122190, 0.111932
11.786717, 0.122850, 0.111497
11.831067, 0.123641, 0.111132
11.875528, 0.124602, 0.110871
11.920098, 0.125757, 0.110730
11.964779, 0.127131, 0.110727
12.009571, 0.128764, 0.110891
12.054474, 0.130690, 0.111256
12.099488, 0.132927, 0.111842
12.144615, 0.135469, 0.112646
12.189854, 0.138294, 0.113646
12.235207, 0.141367, 0.114816
12.280672, 0.144655, 0.116134
12.326252, 0.148137, 0.117588
12.371945, 0.151787, 0.119172
12.417754, 0.155562, 0.120870
12.463677, 0.159397, 0.122656
12.509716, 0.163228, 0.124512
12.555871, 0.166997, 0.126427
12.602142, 0.170662, 0.128402
12.648530, 0.174190, 0.130448
12.695035, 0.177543, 0.132564
12.741658, 0.180679, 0.134733
12.788399, 0.183564, 0.136939
12.835259, 0.186195, 0.139191
12.882238, 0.188576, 0.141505
12.929336, 0.190686, 0.143865
12.976555, 0.192483, 0.146205
13.023894, 0.193950, 0.148449
13.071353, 0.195127, 0.150556
13.118935, 0.196077, 0.152524
13.166637, 0.196845, 0.154361
13.214463, 0.197455, 0.156051
13.262411, 0.197929, 0.157552
13.310482, 0.198316, 0.158820
13.358677, 0.198712, 0.159844
13.406996, 0.199255, 0.160658
13.455440, 0.200100, 0.161326
13.504009, 0.201387, 0.161925
13.552703, 0.203234, 0.162539
13.601524, 0.205719, 0.163263
13.650471, 0.208849, 0.164182
13.699546, 0.212548, 0.165345
13.748748, 0.216698, 0.166769
13.798078, 0.221197, 0.168441
13.847537, 0.225988, 0.170334
13.897125, 0.231051, 0.172410
13.946843, 0.236367, 0.174604
13.996690, 0.241910, 0.176833
14.046669, 0.247620, 0.179021
14.096778, 0.253382, 0.181106
14.147020, 0.259073, 0.183053
14.197393, 0.264648, 0.184897
14.247899, 0.270091, 0.186714
14.298538, 0.275319, 0.188548
14.349311, 0.280209, 0.190399
14.400219, 0.284701, 0.192281
14.451261, 0.288804, 0.194252
14.502439, 0.292509, 0.196379
14.553752, 0.295800, 0.198730
14.605202, 0.298684, 0.201392
14.656789, 0.301177, 0.204460
14.708514, 0.303237, 0.207982
14.760376, 0.304753, 0.211899
14.812378, 0.305590, 0.216058
14.864518, 0.305622, 0.220279
14.916799, 0.304740, 0.224393
14.969219, 0.302872, 0.228169
15.021781, 0.300049, 0.231245
15.074484, 0.296426, 0.233226
15.127329, 0.292274, 0.233881
15.180316, 0.287956, 0.233265
15.233447, 0.283882, 0.231699
15.286721, 0.280386, 0.229629
15.340140, 0.277629, 0.227464
15.393704, 0.275628, 0.225503
15.447414, 0.274353, 0.223958
15.501269, 0.273777, 0.223015
15.555271, 0.273891, 0.222855
15.609421, 0.274723, 0.223606
15.663718, 0.276313, 0.225313
15.718164, 0.278594, 0.227917
15.772760, 0.281266, 0.231194
15.827504, 0.283844, 0.234731
15.882400, 0.285881, 0.238040
15.937446, 0.287133, 0.240719
15.992644, 0.287567, 0.242591
16.047994, 0.287300, 0.243731
16.103497, 0.286577, 0.244393
16.159154, 0.285721, 0.244862
16.214964, 0.284989, 0.245285
16.270930, 0.284473, 0.245609
16.327051, 0.284201, 0.245732
16.383328, 0.284310, 0.245704
16.439762, 0.285023, 0.245683
16.496353, 0.286460, 0.245795
16.553102, 0.288581, 0.246093
16.610010, 0.291246, 0.246619
16.667077, 0.294351, 0.247469
16.724305, 0.297898, 0.248801
16.781693, 0.301845, 0.250726
16.839242, 0.305960, 0.253200
16.896954, 0.309817, 0.256029
16.954828, 0.312973, 0.258980
17.012866, 0.315114, 0.261868
17.071068, 0.316067, 0.264528
17.129435, 0.315895, 0.266854
17.187967, 0.314963, 0.268817
17.246666, 0.313786, 0.270485
17.305531, 0.312737, 0.272044
17.364565, 0.311857, 0.273670
17.423766, 0.310882, 0.275317
17.483137, 0.309487, 0.276764
17.542678, 0.307531, 0.277896
17.602389, 0.305072, 0.278852
17.662271, 0.302310, 0.279894
17.722326, 0.299526, 0.281180
17.782553, 0.296998, 0.282709
17.842954, 0.294884, 0.284445
17.903530, 0.293219, 0.286361
17.964280, 0.292041, 0.288350
18.025206, 0.291456, 0.290185
18.086308, 0.291568, 0.291569
18.147588, 0.292393, 0.292338
18.209047, 0.293912, 0.292575
18.270683, 0.296175, 0.292427
18.332500, 0.299335, 0.291964
18.394497, 0.303580, 0.291334
18.456676, 0.308944, 0.290820
18.519036, 0.315163, 0.290647
18.581579, 0.321704, 0.290856
18.644306, 0.327798, 0.291171
18.707217, 0.332562, 0.290983
18.770314, 0.335399, 0.289724
18.833597, 0.336367, 0.287300
18.897067, 0.336217, 0.284078
18.960724, 0.336079, 0.280486
19.024570, 0.337001, 0.276856
19.088605, 0.339593, 0.273518
19.152831, 0.343832, 0.270737
19.217248, 0.349138, 0.268591
19.281857, 0.354647, 0.266966
19.346658, 0.359537, 0.265679
19.411653, 0.363329, 0.264641
19.476843, 0.366092, 0.264011
19.542229, 0.368586, 0.264181
19.607810, 0.372081, 0.265570
19.673589, 0.377765, 0.268456
19.739566, 0.386313, 0.272951
19.805742, 0.397858, 0.278935
19.872118, 0.412039, 0.285970
19.938694, 0.428269, 0.293444
20.005473, 0.446272, 0.300858
20.072454, 0.466206, 0.307828
20.139638, 0.488229, 0.314025
20.207027, 0.512374, 0.319434
20.274622, 0.538519, 0.324321
20.342422, 0.566097, 0.328983
20.410431, 0.594198, 0.333786
20.478647, 0.621796, 0.339054
20.547072, 0.648121, 0.345035
20.615708, 0.672986, 0.352125
20.684555, 0.696080, 0.360788
20.753614, 0.716577, 0.371245
20.822886, 0.733906, 0.383267
20.892373, 0.748812, 0.396242
20.962074, 0.763102, 0.409404
21.031991, 0.778371, 0.422023
21.102126, 0.795274, 0.433811
21.172478, 0.813733, 0.445128
21.243050, 0.833591, 0.456497
21.313842, 0.854666, 0.468191
21.384855, 0.876380, 0.480218
21.456091, 0.897818, 0.492556
21.527549, 0.917632, 0.505005
21.599232, 0.934877, 0.516638
21.671141, 0.950535, 0.526213
21.743275, 0.967047, 0.533624
21.815638, 0.985848, 0.540660
21.888228, 1.005143, 0.549958
21.961049, 1.020498, 0.562779
22.034100, 1.027914, 0.578246
22.107383, 1.026469, 0.594704
22.180900, 1.018400, 0.611498
22.254650, 1.006105, 0.629006
22.328635, 0.990277, 0.646519
22.402857, 0.971921, 0.662028
22.477316, 0.953424, 0.674828
22.552014, 0.936705, 0.686393
22.626952, 0.921563, 0.698141
22.702131, 0.906094, 0.709260
22.777551, 0.888771, 0.717480
22.853215, 0.870047, 0.721285
22.929123, 0.852016, 0.721172
23.005277, 0.836582, 0.719161
23.081678, 0.824965, 0.717220
23.158327, 0.817817, 0.716467
23.235225, 0.813936, 0.717065
23.312373, 0.810689, 0.718291
23.389773, 0.806082, 0.718409
23.467426, 0.799544, 0.715347
23.545333, 0.791573, 0.707978
23.623496, 0.782797, 0.696421
23.701915, 0.772916, 0.681918
23.780592, 0.761268, 0.666533
23.859528, 0.747782, 0.651758
23.938725, 0.733277, 0.637931
24.018183, 0.718816, 0.625421
24.097905, 0.704994, 0.614566
24.177891, 0.691307, 0.605431
24.258142, 0.675965, 0.597441
24.338661, 0.658497, 0.589718
24.419448, 0.641502, 0.582327
24.500505, 0.628053, 0.576236
24.581832, 0.618269, 0.571503
24.663432, 0.609530, 0.566491
24.745306, 0.599284, 0.559439
24.827455, 0.586758, 0.549936
24.909881, 0.572692, 0.538644
24.992584, 0.558084, 0.526293
25.075567, 0.543917, 0.513548
25.158831, 0.530756, 0.500870
25.242377, 0.518533, 0.488371
25.326206, 0.507303, 0.476014
25.410321, 0.498231, 0.464150
25.494722, 0.492937, 0.453812
25.579411, 0.492146, 0.445890
25.664390, 0.495756, 0.440852
25.749659, 0.503321, 0.438332
25.835221, 0.514137, 0.438030
25.921077, 0.526641, 0.440436
26.007229, 0.537544, 0.445309
26.093677, 0.543927, 0.451421
26.180424, 0.545278, 0.457804
26.267471, 0.542906, 0.463632
26.354820, 0.538615, 0.468096
26.442472, 0.534150, 0.470802
26.530429, 0.530620, 0.471871
26.618692, 0.528376, 0.471933
26.707264, 0.527644, 0.472137
26.796145, 0.528389, 0.473497
26.885337, 0.530174, 0.475976
26.974842, 0.532291, 0.479009
27.064662, 0.533282, 0.482674
27.154798, 0.531513, 0.486991
27.245251, 0.527168, 0.491750
27.336025, 0.521348, 0.497167
27.427119, 0.513943, 0.503131
27.518537, 0.504719, 0.509087
27.610279, 0.494268, 0.515499
27.702348, 0.482751, 0.522774
27.794744, 0.470594, 0.530652
27.887471, 0.458588, 0.539144
27.980530, 0.447059, 0.548102
28.073922, 0.436382, 0.556825
28.167649, 0.426943, 0.564571
28.261713, 0.418429, 0.570967
28.356116, 0.410387, 0.576334
28.450860, 0.403231, 0.582359
28.545947, 0.397661, 0.590375
28.641378, 0.393776, 0.599593
28.737155, 0.390954, 0.608674
28.833280, 0.388271, 0.617068
28.929756, 0.385239, 0.624636
29.026584, 0.381931, 0.631649
29.123765, 0.378999, 0.638898
29.221303, 0.376685, 0.646627
29.319198, 0.374187, 0.653743
29.417453, 0.370775, 0.660020
29.516071, 0.365594, 0.665991
29.615051, 0.357901, 0.671634
29.714398, 0.347376, 0.676344
29.814113, 0.334719, 0.678997
29.914197, 0.321615, 0.680495
30.014654, 0.308818, 0.681642
30.115484, 0.297198, 0.681432
30.216691, 0.288911, 0.680942
30.318276, 0.286835, 0.682353
30.420242, 0.295175, 0.686124
30.522589, 0.318166, 0.691442
30.625322, 0.356831, 0.698140
30.728442, 0.406743, 0.706992
