# energy, eels_NLFC_w, eels_LFC_w
0.000000, -0.000000, -0.000000
0.020017, 0.000133, 0.000050
0.040066, 0.000267, 0.000100
0.060149, 0.000400, 0.000150
0.080266, 0.000535, 0.000201
0.100416, 0.000670, 0.000251
0.120599, 0.000806, 0.000302
0.140817, 0.000943, 0.000353
0.161067, 0.001081, 0.000405
0.181352, 0.001220, 0.000457
0.201671, 0.001360, 0.000509
0.222023, 0.001502, 0.000562
0.242410, 0.001645, 0.000615
0.262831, 0.001790, 0.000669
0.283286, 0.001937, 0.000724
0.303775, 0.002086, 0.000779
0.324299, 0.002237, 0.000835
0.344857, 0.002390, 0.000891
0.365449, 0.002547, 0.000949
0.386077, 0.002705, 0.001007
0.406739, 0.002867, 0.001067
0.427436, 0.003032, 0.001127
0.448168, 0.003201, 0.001188
0.468935, 0.003373, 0.001251
0.489737, 0.003550, 0.001315
0.510574, 0.003730, 0.001380
0.531447, 0.003915, 0.001447
0.552355, 0.004106, 0.001516
0.573298, 0.004301, 0.001586
0.594277, 0.004502, 0.001658
0.615292, 0.004710, 0.001732
0.636342, 0.004924, 0.001808
0.657428, 0.005145, 0.001886
0.678550, 0.005374, 0.001967
0.699708, 0.005611, 0.002051
0.720903, 0.005858, 0.002137
0.742133, 0.006114, 0.002227
0.763400, 0.006381, 0.002320
0.784703, 0.006660, 0.002417
0.806042, 0.006951, 0.002518
0.827418, 0.007256, 0.002623
0.848831, 0.007576, 0.002734
0.870280, 0.007913, 0.002849
0.891767, 0.008268, 0.002971
0.913290, 0.008644, 0.003099
0.934850, 0.009041, 0.003234
0.956448, 0.009463, 0.003378
0.978083, 0.009911, 0.003529
0.999755, 0.010389, 0.003691
1.021464, 0.010898, 0.003863
1.043211, 0.011443, 0.004047
1.064996, 0.012025, 0.004243
1.086818, 0.012648, 0.004454
1.108678, 0.013315, 0.004679
1.130576, 0.014028, 0.004922
1.152512, 0.014791, 0.005183
1.174487, 0.015608, 0.005465
1.196499, 0.016483, 0.005770
1.218550, 0.017421, 0.006099
1.240639, 0.018426, 0.006456
1.262767, 0.019504, 0.006844
1.284933, 0.020661, 0.007265
1.307138, 0.021903, 0.007723
1.329382, 0.023236, 0.008221
1.351664, 0.024668, 0.008760
1.373986, 0.026204, 0.009344
1.396347, 0.027854, 0.009972
1.418747, 0.029623, 0.010648
1.441186, 0.031521, 0.011369
1.463665, 0.033553, 0.012135
1.486184, 0.035725, 0.012945
1.508742, 0.038041, 0.013796
1.531339, 0.040503, 0.014685
1.553977, 0.043107, 0.015607
1.576655, 0.045850, 0.016558
1.599372, 0.048724, 0.017530
1.622130, 0.051718, 0.018515
1.644928, 0.054820, 0.019505
1.667767, 0.058018, 0.020491
1.690646, 0.061300, 0.021466
1.713565, 0.064652, 0.022421
1.736525, 0.068064, 0.023350
1.759526, 0.071523, 0.024251
1.782568, 0.075019, 0.025121
1.805651, 0.078536, 0.025961
1.828776, 0.082059, 0.026773
1.851941, 0.085567, 0.027561
1.875148, 0.089039, 0.028326
1.898396, 0.092450, 0.029067
1.921686, 0.095776, 0.029782
1.945017, 0.098993, 0.030461
1.968391, 0.102081, 0.031089
1.991806, 0.105026, 0.031651
2.015263, 0.107825, 0.032128
2.038763, 0.110489, 0.032508
2.062305, 0.113043, 0.032785
2.085889, 0.115524, 0.032964
2.109515, 0.117974, 0.033055
2.133184, 0.120430, 0.033073
2.156896, 0.122915, 0.033034
2.180651, 0.125430, 0.032946
2.204449, 0.127956, 0.032816
2.228289, 0.130464, 0.032645
2.252173, 0.132924, 0.032436
2.276101, 0.135313, 0.032194
2.300071, 0.137626, 0.031929
2.324086, 0.139870, 0.031653
2.348143, 0.142064, 0.031382
2.372245, 0.144235, 0.031133
2.396391, 0.146413, 0.030921
2.420580, 0.148634, 0.030758
2.444814, 0.150930, 0.030657
2.469092, 0.153330, 0.030623
2.493414, 0.155851, 0.030661
2.517781, 0.158498, 0.030771
2.542192, 0.161255, 0.030954
2.566649, 0.164084, 0.031206
2.591150, 0.166917, 0.031526
2.615696, 0.169661, 0.031913
2.640287, 0.172195, 0.032369
2.664923, 0.174374, 0.032899
2.689605, 0.176037, 0.033515
2.714332, 0.177016, 0.034228
2.739105, 0.177140, 0.035059
2.763924, 0.176249, 0.036026
2.788789, 0.174204, 0.037152
2.813699, 0.170904, 0.038460
2.838656, 0.166311, 0.039969
2.863659, 0.160459, 0.041692
2.888708, 0.153462, 0.043630
2.913804, 0.145509, 0.045757
2.938946, 0.136846, 0.048015
2.964135, 0.127749, 0.050294
2.989371, 0.118497, 0.052424
3.014654, 0.109352, 0.054175
3.039985, 0.100538, 0.055281
3.065362, 0.092234, 0.055492
3.090787, 0.084568, 0.054653
3.116260, 0.077616, 0.052769
3.141780, 0.071410, 0.050014
3.167348, 0.065942, 0.046682
3.192965, 0.061177, 0.043097
3.218629, 0.057064, 0.039539
3.244341, 0.053544, 0.036202
3.270102, 0.050557, 0.033199
3.295911, 0.048045, 0.030574
3.321769, 0.045961, 0.028331
3.347676, 0.044261, 0.026448
3.373632, 0.042911, 0.024894
3.399636, 0.041883, 0.023636
3.425690, 0.041156, 0.022643
3.451793, 0.040710, 0.021886
3.477946, 0.040530, 0.021341
3.504149, 0.040600, 0.020985
3.530401, 0.040903, 0.020800
3.556703, 0.041423, 0.020770
3.583055, 0.042144, 0.020879
3.609457, 0.043052, 0.021117
3.635910, 0.044135, 0.021473
3.662413, 0.045386, 0.021939
3.688966, 0.046796, 0.022508
3.715571, 0.048357, 0.023172
3.742226, 0.050056, 0.023924
3.768933, 0.051877, 0.024753
3.795690, 0.053797, 0.025647
3.822499, 0.055785, 0.026591
3.849360, 0.057809, 0.027566
3.876272, 0.059836, 0.028557
3.903236, 0.061836, 0.029547
3.930252, 0.063788, 0.030522
3.957320, 0.065678, 0.031474
3.984440, 0.067502, 0.032395
4.011613, 0.069263, 0.033282
4.038838, 0.070968, 0.034137
4.066116, 0.072631, 0.034964
4.093446, 0.074268, 0.035768
4.120830, 0.075895, 0.036558
4.148267, 0.077523, 0.037342
4.175757, 0.079160, 0.038127
4.203301, 0.080804, 0.038914
4.230898, 0.082452, 0.039705
4.258550, 0.084100, 0.040499
4.286255, 0.085750, 0.041296
4.314014, 0.087404, 0.042099
4.341827, 0.089069, 0.042908
4.369695, 0.090748, 0.043728
4.397618, 0.092442, 0.044561
4.425595, 0.094149, 0.045412
4.453627, 0.095863, 0.046281
4.481714, 0.097577, 0.047170
4.509857, 0.099285, 0.048077
4.538054, 0.100987, 0.049006
4.566308, 0.102690, 0.049959
4.594617, 0.104402, 0.050942
4.622982, 0.106124, 0.051956
4.651403, 0.107851, 0.052999
4.679880, 0.109567, 0.054064
4.708414, 0.111252, 0.055141
4.737004, 0.112891, 0.056222
4.765651, 0.114476, 0.057301
4.794355, 0.116016, 0.058381
4.823116, 0.117532, 0.059467
4.851934, 0.119048, 0.060570
4.880809, 0.120585, 0.061704
4.909742, 0.122151, 0.062879
4.938733, 0.123735, 0.064105
4.967782, 0.125315, 0.065389
4.996889, 0.126858, 0.066731
5.026054, 0.128325, 0.068127
5.055277, 0.129665, 0.069561
5.084559, 0.130823, 0.071006
5.113900, 0.131738, 0.072424
5.143300, 0.132360, 0.073770
5.172759, 0.132655, 0.074998
5.202277, 0.132619, 0.076061
5.231855, 0.132283, 0.076929
5.261493, 0.131716, 0.077587
5.291190, 0.131011, 0.078047
5.320948, 0.130272, 0.078337
5.350766, 0.129602, 0.078500
5.380644, 0.129090, 0.078585
5.410582, 0.128814, 0.078640
5.440582, 0.128837, 0.078720
5.470642, 0.129203, 0.078876
5.500764, 0.129925, 0.079154
5.530947, 0.130981, 0.079583
5.561191, 0.132310, 0.080169
5.591498, 0.133817, 0.080886
5.621866, 0.135388, 0.081681
5.652296, 0.136913, 0.082487
5.682789, 0.138307, 0.083233
5.713343, 0.139540, 0.083869
5.743961, 0.140639, 0.084370
5.774642, 0.141687, 0.084749
5.805385, 0.142792, 0.085042
5.836192, 0.144062, 0.085303
5.867062, 0.145571, 0.085581
5.897996, 0.147356, 0.085908
5.928994, 0.149412, 0.086298
5.960056, 0.151702, 0.086743
5.991182, 0.154162, 0.087216
6.022372, 0.156709, 0.087682
6.053627, 0.159251, 0.088098
6.084947, 0.161709, 0.088430
6.116332, 0.164035, 0.088665
6.147782, 0.166235, 0.088817
6.179298, 0.168372, 0.088931
6.210879, 0.170556, 0.089072
6.242527, 0.172919, 0.089310
6.274240, 0.175601, 0.089714
6.306019, 0.178732, 0.090339
6.337865, 0.182437, 0.091224
6.369778, 0.186830, 0.092395
6.401758, 0.192014, 0.093864
6.433804, 0.198075, 0.095633
6.465918, 0.205074, 0.097694
6.498100, 0.213052, 0.100035
6.530349, 0.222029, 0.102630
6.562666, 0.232018, 0.105448
6.595052, 0.243043, 0.108439
6.627505, 0.255140, 0.111532
6.660028, 0.268345, 0.114629
6.692619, 0.282670, 0.117602
6.725279, 0.298062, 0.120301
6.758009, 0.314374, 0.122570
6.790808, 0.331346, 0.124274
6.823676, 0.348590, 0.125323
6.856615, 0.365567, 0.125691
6.889624, 0.381585, 0.125412
6.922703, 0.395856, 0.124578
6.955853, 0.407623, 0.123315
6.989073, 0.416327, 0.121767
7.022365, 0.421724, 0.120068
7.055728, 0.423930, 0.118343
7.089162, 0.423373, 0.116694
7.122668, 0.420706, 0.115209
7.156246, 0.416674, 0.113952
7.189897, 0.411979, 0.112970
7.223619, 0.407173, 0.112292
7.257415, 0.402629, 0.111936
7.291283, 0.398582, 0.111922
7.325225, 0.395185, 0.112263
7.359239, 0.392548, 0.112974
7.393328, 0.390761, 0.114063
7.427490, 0.389906, 0.115527
7.461727, 0.390049, 0.117351
7.496037, 0.391220, 0.119503
7.530423, 0.393414, 0.121944
7.564883, 0.396598, 0.124641
7.599418, 0.400737, 0.127569
7.634029, 0.405796, 0.130713
7.668715, 0.411743, 0.134060
7.703477, 0.418544, 0.137591
7.738314, 0.426162, 0.141273
7.773229, 0.434548, 0.145060
7.808220, 0.443646, 0.148895
7.843287, 0.453392, 0.152727
7.878432, 0.463751, 0.156520
7.913654, 0.474757, 0.160260
7.948953, 0.486563, 0.163966
7.984331, 0.499445, 0.167691
8.019786, 0.513759, 0.171536
8.055320, 0.529856, 0.175653
8.090933, 0.547976, 0.180242
8.126624, 0.568146, 0.185520
8.162394, 0.590081, 0.191684
8.198244, 0.613163, 0.198852
8.234174, 0.636595, 0.207039
8.270183, 0.659704, 0.216168
8.306273, 0.682265, 0.226136
8.342443, 0.704631, 0.236904
8.378694, 0.727634, 0.248566
8.415025, 0.752324, 0.261367
8.451438, 0.779665, 0.275693
8.487933, 0.810253, 0.292045
8.524509, 0.844086, 0.311027
8.561168, 0.880283, 0.333354
8.597909, 0.916632, 0.359812
8.634732, 0.948995, 0.391143
8.671639, 0.971091, 0.427749
8.708629, 0.975619, 0.469243
8.745702, 0.957035, 0.513873
8.782859, 0.914507, 0.558001
8.820100, 0.852607, 0.595974
8.857425, 0.779192, 0.620972
8.894835, 0.702301, 0.627188
8.932330, 0.628038, 0.612522
8.969910, 0.559994, 0.579817
9.007575, 0.499650, 0.535439
9.045327, 0.447113, 0.486428
9.083164, 0.401780, 0.438320
9.121088, 0.362769, 0.394487
9.159098, 0.329167, 0.356485
9.197196, 0.300115, 0.324668
9.235380, 0.274846, 0.298720
9.273653, 0.252705, 0.278043
9.312013, 0.233158, 0.262003
9.350461, 0.215797, 0.250046
9.388998, 0.200311, 0.241747
9.427624, 0.186474, 0.236812
9.466338, 0.174117, 0.235074
9.505142, 0.163111, 0.236490
9.544036, 0.153345, 0.241119
9.583020, 0.144705, 0.249080
9.622094, 0.137057, 0.260488
9.661259, 0.130266, 0.275345
9.700515, 0.124215, 0.293359
9.739862, 0.118810, 0.313692
9.779300, 0.113974, 0.334694
9.818831, 0.109634, 0.353793
9.858454, 0.105717, 0.367736
9.898169, 0.102174, 0.373355
9.937977, 0.098989, 0.368804
9.977879, 0.096171, 0.354529
10.017874, 0.093733, 0.333110
10.057963, 0.091670, 0.308010
10.098146, 0.089965, 0.282241
10.138423, 0.088592, 0.257772
10.178796, 0.087529, 0.235616
10.219264, 0.086746, 0.216146
10.259827, 0.086201, 0.199339
10.300486, 0.085847, 0.184949
10.341241, 0.085649, 0.172652
10.382093, 0.085594, 0.162137
10.423042, 0.085691, 0.153154
10.464088, 0.085944, 0.145498
10.505232, 0.086346, 0.138981
10.546473, 0.086866, 0.133427
10.587813, 0.087469, 0.128675
10.629252, 0.088141, 0.124615
10.670789, 0.088896, 0.121190
10.712426, 0.089766, 0.118360
10.754163, 0.090777, 0.116072
10.796000, 0.091949, 0.114265
10.837937, 0.093295, 0.112891
10.879975, 0.094823, 0.111921
10.922114, 0.096540, 0.111332
10.964355, 0.098460, 0.111099
11.006697, 0.100612, 0.111205
11.049142, 0.103031, 0.111648
11.091689, 0.105738, 0.112439
11.134340, 0.108717, 0.113576
11.177094, 0.111916, 0.115023
11.219951, 0.115254, 0.116710
11.262913, 0.118642, 0.118553
11.305979, 0.121995, 0.120478
11.349150, 0.125241, 0.122431
11.392427, 0.128320, 0.124372
11.435809, 0.131187, 0.126275
11.479297, 0.133835, 0.128129
11.522892, 0.136320, 0.129961
11.566593, 0.138743, 0.131828
11.610402, 0.141211, 0.133797
11.654318, 0.143794, 0.135900
11.698342, 0.146507, 0.138135
11.742475, 0.149317, 0.140468
11.786717, 0.152164, 0.142847
11.831067, 0.154988, 0.145218
11.875528, 0.157749, 0.147545
11.920098, 0.160423, 0.149812
11.964779, 0.163012, 0.152012
12.009571, 0.165557, 0.154154
12.054474, 0.168137, 0.156281
12.099488, 0.170845, 0.158461
12.144615, 0.173768, 0.160773
12.189854, 0.176940, 0.163252
12.235207, 0.180311, 0.165855
12.280672, 0.183775, 0.168485
12.326252, 0.187226, 0.171062
12.371945, 0.190593, 0.173557
12.417754, 0.193841, 0.175970
12.463677, 0.196937, 0.178290
12.509716, 0.199857, 0.180493
12.555871, 0.202616, 0.182573
12.602142, 0.205272, 0.184563
12.648530, 0.207914, 0.186529
12.695035, 0.210625, 0.188558
12.741658, 0.213454, 0.190708
12.788399, 0.216389, 0.192982
12.835259, 0.219404, 0.195355
12.882238, 0.222499, 0.197829
12.929336, 0.225692, 0.200435
12.976555, 0.228984, 0.203196
13.023894, 0.232351, 0.206108
13.071353, 0.235772, 0.209160
13.118935, 0.239246, 0.212366
13.166637, 0.242764, 0.215734
13.214463, 0.246261, 0.219202
13.262411, 0.249606, 0.222625
13.310482, 0.252652, 0.225835
13.358677, 0.255324, 0.228743
13.406996, 0.257693, 0.231390
13.455440, 0.259906, 0.233892
13.504009, 0.262039, 0.236312
13.552703, 0.264029, 0.238585
13.601524, 0.265741, 0.240562
13.650471, 0.267076, 0.242137
13.699546, 0.268055, 0.243324
13.748748, 0.268859, 0.244274
13.798078, 0.269736, 0.245194
13.847537, 0.270814, 0.246193
13.897125, 0.272034, 0.247228
13.946843, 0.273298, 0.248218
13.996690, 0.274603, 0.249173
14.046669, 0.276006, 0.250170
14.096778, 0.277490, 0.251230
14.147020, 0.278921, 0.252265
14.197393, 0.280154, 0.253176
14.247899, 0.281179, 0.253999
14.298538, 0.282112, 0.254920
14.349311, 0.283112, 0.256185
14.400219, 0.284296, 0.257983
14.451261, 0.285682, 0.260366
14.502439, 0.287168, 0.263233
14.553752, 0.288592, 0.266405
14.605202, 0.289779, 0.269696
14.656789, 0.290523, 0.272917
14.708514, 0.290608, 0.275857
14.760376, 0.289994, 0.278403
14.812378, 0.288903, 0.280644
14.864518, 0.287600, 0.282744
14.916799, 0.286136, 0.284695
14.969219, 0.284424, 0.286303
15.021781, 0.282531, 0.287417
15.074484, 0.280721, 0.288048
15.127329, 0.279219, 0.288256
15.180316, 0.278090, 0.288045
15.233447, 0.277294, 0.287429
15.286721, 0.276745, 0.286508
15.340140, 0.276328, 0.285399
15.393704, 0.275944, 0.284147
15.447414, 0.275571, 0.282761
15.501269, 0.275223, 0.281260
15.555271, 0.274881, 0.279659
15.609421, 0.274466, 0.277945
15.663718, 0.273885, 0.276096
15.718164, 0.273087, 0.274143
15.772760, 0.272060, 0.272168
15.827504, 0.270789, 0.270239
15.882400, 0.269185, 0.268304
15.937446, 0.267025, 0.266113
15.992644, 0.264036, 0.263297
16.047994, 0.260162, 0.259625
16.103497, 0.255663, 0.255171
16.159154, 0.250961, 0.250262
16.214964, 0.246472, 0.245306
16.270930, 0.242581, 0.240671
16.327051, 0.239715, 0.236702
16.383328, 0.238311, 0.233765
16.439762, 0.238627, 0.232134
16.496353, 0.240601, 0.231839
16.553102, 0.243946, 0.232705
16.610010, 0.248285, 0.234484
16.667077, 0.253143, 0.236887
16.724305, 0.258004, 0.239628
16.781693, 0.262532, 0.242571
16.839242, 0.266657, 0.245758
16.896954, 0.270482, 0.249254
16.954828, 0.274148, 0.253050
17.012866, 0.277782, 0.257122
17.071068, 0.281528, 0.261533
17.129435, 0.285514, 0.266390
17.187967, 0.289763, 0.271693
17.246666, 0.294199, 0.277278
17.305531, 0.298749, 0.282927
17.364565, 0.303438, 0.288497
17.423766, 0.308269, 0.293834
17.483137, 0.313119, 0.298667
17.542678, 0.317887, 0.302741
17.602389, 0.322553, 0.305912
17.662271, 0.327059, 0.308132
17.722326, 0.331321, 0.309525
17.782553, 0.335366, 0.310524
17.842954, 0.339298, 0.311727
17.903530, 0.343167, 0.313602
17.964280, 0.346954, 0.316269
18.025206, 0.350482, 0.319378
18.086308, 0.353480, 0.322268
18.147588, 0.355907, 0.324484
18.209047, 0.358036, 0.326050
18.270683, 0.360157, 0.327188
18.332500, 0.362356, 0.327946
18.394497, 0.364616, 0.328239
18.456676, 0.367181, 0.328228
18.519036, 0.370671, 0.328482
18.581579, 0.375781, 0.329655
18.644306, 0.382898, 0.332058
18.707217, 0.391897, 0.335525
18.770314, 0.402276, 0.339634
18.833597, 0.413555, 0.344184
18.897067, 0.425345, 0.349405
18.960724, 0.436977, 0.355539
19.024570, 0.447320, 0.362323
19.088605, 0.455202, 0.369135
19.152831, 0.460136, 0.375650
19.217248, 0.462276, 0.381924
19.281857, 0.461801, 0.387814
19.346658, 0.458854, 0.392858
19.411653, 0.453765, 0.396516
19.476843, 0.447155, 0.398300
19.542229, 0.440069, 0.398116
19.607810, 0.433896, 0.396452
19.673589, 0.429937, 0.393989
19.739566, 0.429073, 0.391300
19.805742, 0.431724, 0.388865
19.872118, 0.437871, 0.387091
19.938694, 0.447138, 0.386151
20.005473, 0.459138, 0.385947
20.072454, 0.473836, 0.386463
20.139638, 0.491513, 0.388214
20.207027, 0.512117, 0.392147
20.274622, 0.534543, 0.398954
20.342422, 0.556794, 0.408669
20.410431, 0.577013, 0.420845
20.478647, 0.594310, 0.434819
20.547072, 0.608823, 0.449879
20.615708, 0.621414, 0.465384
20.684555, 0.633056, 0.480797
20.753614, 0.644253, 0.495688
20.822886, 0.655130, 0.509903
20.892373, 0.665483, 0.523475
20.962074, 0.674786, 0.536344
21.031991, 0.682610, 0.548422
21.102126, 0.689299, 0.559919
21.172478, 0.696111, 0.571570
21.243050, 0.704320, 0.584227
21.313842, 0.714470, 0.598423
21.384855, 0.726709, 0.614472
21.456091, 0.741852, 0.632662
21.527549, 0.761846, 0.653218
21.599232, 0.788563, 0.675839
21.671141, 0.821963, 0.699741
21.743275, 0.859189, 0.724317
21.815638, 0.895555, 0.748891
21.888228, 0.926874, 0.772186
21.961049, 0.950199, 0.792262
22.034100, 0.963557, 0.806976
22.107383, 0.966593, 0.814669
22.180900, 0.961116, 0.814795
22.254650, 0.950713, 0.808770
22.328635, 0.939751, 0.799629
22.402857, 0.933369, 0.791587
22.477316, 0.935469, 0.788754
22.552014, 0.946029, 0.792907
22.626952, 0.961538, 0.802879
22.702131, 0.976862, 0.815737
22.777551, 0.988000, 0.828976
22.853215, 0.994072, 0.841283
22.929123, 0.996497, 0.852162
23.005277, 0.997173, 0.862115
23.081678, 0.997929, 0.872417
23.158327, 0.999659, 0.884080
23.235225, 1.002161, 0.897316
23.312373, 1.004815, 0.911659
23.389773, 1.005430, 0.924906
23.467426, 1.000875, 0.933173
23.545333, 0.990223, 0.933700
23.623496, 0.975987, 0.926847
23.701915, 0.962071, 0.915148
23.780592, 0.950241, 0.900384
23.859528, 0.939771, 0.883268
23.938725, 0.929169, 0.865400
24.018183, 0.917158, 0.848508
24.097905, 0.903306, 0.833247
24.177891, 0.887188, 0.818833
24.258142, 0.867758, 0.803519
24.338661, 0.845584, 0.786747
24.419448, 0.823759, 0.769877
24.500505, 0.805245, 0.754612
24.581832, 0.790045, 0.741021
24.663432, 0.775819, 0.727605
24.745306, 0.761129, 0.713197
24.827455, 0.746178, 0.697553
24.909881, 0.731566, 0.680815
24.992584, 0.718382, 0.663982
25.075567, 0.708472, 0.649179
25.158831, 0.702455, 0.637873
25.242377, 0.698069, 0.629213
25.326206, 0.692465, 0.621168
25.410321, 0.685445, 0.613038
25.494722, 0.678641, 0.605528
25.579411, 0.673001, 0.598872
25.664390, 0.669084, 0.592882
25.749659, 0.667898, 0.588035
25.835221, 0.669524, 0.585045
25.921077, 0.671839, 0.583566
26.007229, 0.672695, 0.582842
26.093677, 0.672388, 0.583114
26.180424, 0.671928, 0.584542
26.267471, 0.670464, 0.586068
26.354820, 0.666262, 0.586100
26.442472, 0.659513, 0.584170
26.530429, 0.652452, 0.581288
26.618692, 0.647295, 0.578968
26.707264, 0.644053, 0.577691
26.796145, 0.641084, 0.576900
26.885337, 0.637966, 0.576555
26.974842, 0.634952, 0.577026
27.064662, 0.631430, 0.578356
27.154798, 0.627056, 0.580968
27.245251, 0.621941, 0.584920
27.336025, 0.615945, 0.589676
27.427119, 0.608895, 0.595032
27.518537, 0.599906, 0.600759
27.610279, 0.587945, 0.606562
27.702348, 0.574115, 0.613138
27.794744, 0.559444, 0.621023
27.887471, 0.543895, 0.629467
27.980530, 0.528279, 0.636983
28.073922, 0.513224, 0.642197
28.167649, 0.499905, 0.644268
28.261713, 0.489759, 0.644911
28.356116, 0.482053, 0.646143
28.450860, 0.475047, 0.647664
28.545947, 0.468142, 0.648320
28.641378, 0.461428, 0.647666
28.737155, 0.455325, 0.646124
28.833280, 0.449964, 0.644391
28.929756, 0.444860, 0.643039
29.026584, 0.439827, 0.642491
29.123765, 0.434394, 0.642651
29.221303, 0.426857, 0.642789
29.319198, 0.416947, 0.642183
29.417453, 0.406441, 0.641026
29.516071, 0.396301, 0.639860
29.615051, 0.385623, 0.638761
29.714398, 0.373189, 0.636011
29.814113, 0.359151, 0.629551
29.914197, 0.344914, 0.621039
30.014654, 0.331503, 0.614073
30.115484, 0.319767, 0.611336
30.216691, 0.310194, 0.613398
30.318276, 0.304768, 0.618376
30.420242, 0.308378, 0.625527
30.522589, 0.325597, 0.634703
30.625322, 0.357462, 0.645398
30.728442, 0.399149, 0.656089
